t,r,r_dot,theta,theta_dot
0.0,150000000000.0,0.0,0.0,1.9832769515795482e-07
21033.677892630876,149999994881.9979,-0.729255617279347,0.004159280074400425,1.9716112324054078e-07
42067.35578526175,149999959176.36023,-2.905594305770748,0.0082940957878756,1.960014928782402e-07
63101.03367789263,149999862624.783,-6.512009251734687,0.012404593533845772,1.94848840387536e-07
84134.7115705235,149999675324.76794,-11.531675564790858,0.01649092043955195,1.9370319923998673e-07
105168.38946315438,149999367725.77893,-17.94795183563126,0.02055322430702326,1.9256460013982133e-07
126202.06735578526,149998910625.3686,-25.744381543608558,0.024591653555691904,1.9143307110045195e-07
147235.74524841615,149998275165.2738,-34.904694321564115,0.02860635716655004,1.9030863751997743e-07
168269.423141047,149997432827.488,-45.41280708037299,0.03259748462793941,1.8919132225553371e-07
189303.10103367787,149996355430.3137,-57.252824999127995,0.03656518588293989,1.8808114569646908e-07
210336.77892630876,149995015124.40228,-70.40904238969873,0.04050961127825197,1.869781258363259e-07
231370.45681893965,149993384388.73608,-84.8659434411824,0.04443091151418009,1.858822783443256e-07
252404.1347115705,149991436026.6691,-100.60820283025815,0.04832923759715071,1.8479361663433e-07
273437.8126042014,149989143161.8941,-117.62068624289039,0.05220474079238548,1.8371215193396446e-07
294471.4904968323,149986479234.39258,-135.8884507626727,0.0560575725787601,1.8263789335225486e-07
315505.16838946316,149983417996.50024,-155.39674517066783,0.05988788460558333,1.8157084794445604e-07
336538.846282094,149979933508.70932,-176.13101014090563,0.06369582864860016,1.805110207795447e-07
357572.5241747249,149976000135.8543,-198.07687833728107,0.06748155657108554,1.7945841500051064e-07
378606.20206735574,149971592542.79865,-221.2201744232582,0.07124522028124393,1.7841303189117565e-07
399639.87995998666,149966685690.7198,-245.54691498820048,0.07498697169690291,1.7737487093261132e-07
420673.5578526175,149961254832.70847,-271.04330837115305,0.07870696270486574,1.7634392986870356e-07
441707.2357452484,149955275510.12677,-297.6957544492734,0.08240534512824399,1.7532020475945698e-07
462740.9136378793,149948723548.21393,-325.49084427972286,0.08608227068903716,1.7430369004381763e-07
483774.59153051017,149941575052.33945,-354.41535976394005,0.08973789097586234,1.732943785926434e-07
504808.269423141,149933806403.9166,-384.45627314822417,0.09337235741242253,1.7229226176470914e-07
525841.947315772,149925394256.223,-415.6007465261124,0.09698582122309177,1.7129732946367137e-07
546875.6252084028,149916315530.8738,-447.8361312846177,0.1005784334079695,1.7030957018454537e-07
567909.3031010337,149906547413.16394,-481.14996738261476,0.10415034470788963,1.693289710745293e-07
588942.9809936646,149896067348.77496,-515.5299827804467,0.10770170558106422,1.6835551797506957e-07
609976.6588862954,149884853039.543,-550.964092609069,0.1112326661756436,1.6738919547474128e-07
631010.3367789263,149872882439.2216,-587.4403983726293,0.1147433762997993,1.6642998696154398e-07
652044.0146715571,149860133750.35355,-624.9471872384096,0.11823398540345094,1.6547787466043486e-07
673077.692564188,149846585419.53934,-663.4729309722069,0.12170464254921629,1.6453283968929356e-07
694111.370456819,149832216133.90097,-703.0062851490293,0.1251554963899073,1.6359486209999352e-07
715145.0483494498,149817004817.70706,-743.5360882577747,0.12858669515143561,1.6266392091673723e-07
736178.7262420807,149800930627.5383,-785.0513604811543,0.13199838660538976,1.6173999418993843e-07
757212.4041347115,149783972949.12555,-827.5413028910749,0.13539071805107394,1.6082305903077457e-07
778246.0820273424,149766111393.92963,-870.9952964341292,0.13876383630034247,1.5991309164796421e-07
799279.7599199733,149747325794.314,-915.4029005835567,0.14211788765302155,1.590100673984056e-07
820313.4378126041,149727596200.37033,-960.75385245723,0.14545301788055937,1.581139608198078e-07
841347.115705235,149706902876.7667,-1007.0380657961787,0.14876937221391323,1.572247456626539e-07
862380.793597866,149685226298.1603,-1054.2456295540499,0.15206709532342785,1.5634239493565386e-07
883414.4714904968,149662547145.3541,-1102.3668067572685,0.15534633130086736,1.5546688094281203e-07
904448.1493831277,149638846302.75067,-1151.392033634784,0.1586072236506864,1.5459817530752785e-07
925481.8272757586,149614104854.4622,-1201.3119182852647,0.16184991527652312,1.5373624900944947e-07
946515.5051683894,149588304079.17673,-1252.1172390546467,0.16507454846014927,1.528810724306852e-07
967549.1830610203,149561425448.37512,-1303.7989439387975,0.16828126485513495,1.520326153716307e-07
988582.8609536511,149533450622.67828,-1356.3481492249432,0.17147020547711314,1.5119084708354367e-07
1009616.538846282,149504361447.4195,-1409.7561379785968,0.17464151068891465,1.5035573630627409e-07
1030650.216738913,149474139948.73752,-1464.0143587443843,0.1777953201869803,1.4952725130071774e-07
1051683.894631544,149442768331.75018,-1519.1144248629118,0.18093177299702334,1.487053598636119e-07
1072717.5725241746,149410228976.84497,-1575.0481130156284,0.18405100746627262,1.478900293584935e-07
1093751.2504168055,149376504434.71832,-1631.8073615136343,0.18715316124884726,1.4708122675386395e-07
1114784.9283094364,149341577423.46402,-1689.3842692871626,0.1902383712974872,1.4627891864549636e-07
1135818.6062020673,149305430826.5504,-1747.7710951007348,0.19330677386002643,1.4548307127142406e-07
1156852.2840946983,149268047689.3034,-1806.960256109134,0.19635850447419123,1.446936505392334e-07
1177885.9619873292,149229411213.89102,-1866.9443261010313,0.19939369795549605,1.4391062206112936e-07
1198919.6398799599,149189504756.2239,-1927.7160343975224,0.2024124883902425,1.4313395117563482e-07
1219953.3177725908,149148311824.6827,-1989.2682653566392,0.20541500913392494,1.4236360295609988e-07
1240986.9956652217,149105816076.09116,-2051.5940566922914,0.20840139280750603,1.4159954223906447e-07
1262020.6735578526,149062001312.12494,-2114.686598186754,0.2113717712908662,1.4084173364735644e-07
1283054.3514504835,149016851474.31155,-2178.5392299138603,0.2143262757141109,1.4009014162164893e-07
1304088.0293431142,148970350643.72092,-2243.1454421239564,0.2172650364571901,1.393447304223747e-07
1325121.7072357452,148922483036.94772,-2308.498873637726,0.22018818314754576,1.3860546415436927e-07
1346155.385128376,148873233004.36777,-2374.593311046959,0.22309584465985374,1.378723067788796e-07
1367189.063021007,148822585023.52982,-2441.4226864361144,0.22598814910743556,1.371452221505626e-07
1388222.740913638,148770523697.18732,-2508.9810766781707,0.22886522384010177,1.3642417402871294e-07
1409256.4188062686,148717033752.76105,-2577.262703235081,0.231727195444005,1.3570912608008672e-07
1430290.0966988995,148662100037.42184,-2646.2619301851355,0.23457418974179264,1.3500004190611675e-07
1451323.7745915304,148605707517.30698,-2715.973263843101,0.23740633179278653,1.3429688504811722e-07
1472357.4524841614,148547841270.0668,-2786.39135026327,0.24022374588763265,1.3359961902418316e-07
1493391.1303767923,148488486483.61908,-2857.510974803311,0.24302655554765662,1.3290820733550549e-07
1514424.808269423,148427628455.92157,-2929.327062044835,0.24581488352490966,1.3222261346740726e-07
1535458.486162054,148365252589.62698,-3001.834673783481,0.24858885180464563,1.3154280091483086e-07
1556492.1640546848,148301344392.42847,-3075.0290089285754,0.2513485816069541,1.3086873318271434e-07
1577525.8419473157,148235889469.42502,-3148.9054011380217,0.254094193384831,1.3020037381860657e-07
1598559.5198399466,148168873520.53476,-3223.4593179672283,0.2568258068241465,1.2953768642405437e-07
1619593.1977325776,148100282340.49493,-3298.686360869109,0.2595435408436452,1.2888063465460257e-07
1640626.8756252083,148030101816.79205,-3374.582264509582,0.2622475135966176,1.282291822280091e-07
1661660.5535178392,147958317924.5604,-3451.1428947871473,0.26493784247756985,1.275832929465166e-07
1682694.23141047,147884916727.19626,-3528.3642490909456,0.26761464412054237,1.2694293069429802e-07
1703727.909303101,147809884367.39328,-3606.2424537022125,0.2702780344027024,1.2630805947068403e-07
1724761.587195732,147733207066.63248,-3684.7737636377606,0.27292812844464026,1.2567864339210748e-07
1745795.2650883626,147654871125.18228,-3763.954562649978,0.27556504061036874,1.250546466921032e-07
1766828.9429809935,147574862919.772,-3843.7813625565113,0.2781888845103151,1.244360337290289e-07
1787862.6208736245,147493168897.76526,-3924.250801203311,0.28079977301177234,1.2382276900743803e-07
1808896.2987662554,147409775579.91434,-4005.3596432732447,0.28339781823450244,1.2321481716908724e-07
1829929.9766588863,147324669549.7963,-4087.104777688135,0.28598313156013005,1.2261214302562198e-07
1850963.6545515172,147237837453.09412,-4169.483217418765,0.288555823632913,1.220147115608685e-07
1871997.332444148,147149265997.59692,-4252.49209948488,0.29111600435974183,1.2142248793083397e-07
1893031.0103367788,147058941953.07422,-4336.12868492778,0.2936637829103463,1.2083543746403967e-07
1914064.6882294097,146966852143.07962,-4420.390356805145,0.2961992677325262,1.2025352568423614e-07
1935098.3661220407,146872983449.14572,-4505.274620623309,0.2987225665487332,1.1967671830155136e-07
1956132.0440146716,146777322803.4401,-4590.779103212938,0.30123378636340553,1.1910498123007497e-07
1977165.7219073023,146679857182.9266,-4676.901551571863,0.3037330334714949,1.1853828060286091e-07
1998199.3997999332,146580573609.36566,-4763.639832865078,0.3062204134584668,1.1797658277192745e-07
2019233.077692564,146479459149.3141,-4850.991934424741,0.3086960312003,1.1741985430825714e-07
2040266.755585195,146376500913.89572,-4938.955963716652,0.3111599908639649,1.1686806200228483e-07
2061300.433477826,146271686049.21533,-5027.530146676789,0.31361239592948037,1.1632117288517618e-07
2082334.1113704566,146165001742.4139,-5116.712828083708,0.3160533491806579,1.1577915421782418e-07
2103367.789263088,146056435213.532,-5206.502470948255,0.318482952716503,1.1524197350643993e-07
2124401.4671557187,145945973709.6772,-5296.897655785873,0.32090130796228145,1.147095985145663e-07
2145435.145048349,145833604505.02423,-5387.897080616618,0.32330851566951946,1.1418199726307802e-07
2166468.82294098,145719314900.81497,-5479.499560965154,0.32570467591600377,1.1365913803018149e-07
2187502.500833611,145603092225.35837,-5571.704029860749,0.3280898881057813,1.1314098935141502e-07
2208536.178726242,145484923826.9804,-5664.509537307673,0.33046425098741944,1.1262752003183937e-07
2229569.856618873,145364797073.32825,-5757.915249579682,0.33282786266034786,1.1211869914889625e-07
2250603.5345115038,145242699351.64236,-5851.920449711067,0.3351808205691691,1.1161449605107445e-07
2271637.2124041347,145118618058.39685,-5946.524537186532,0.3375232215265712,1.1111488037476596e-07
2292670.8902967656,144992540599.2697,-6041.7270279397135,0.3398551617133985,1.1061982204431517e-07
2313704.5681893965,144864454389.14294,-6137.527554353181,0.3421767366786516,1.1012929127201901e-07
2334738.2460820274,144734346852.10254,-6233.925865258435,0.34448804133948746,1.0964325855812682e-07
2355771.9239746584,144602205418.34204,-6330.921826053991,0.3467891699898049,1.0916169469506499e-07
2376805.601867289,144468017515.73465,-6428.515418527287,0.34908021632721,1.0868457077974536e-07
2397839.2797599197,144331770577.84818,-6526.706740525233,0.35136127342961987,1.082118582028911e-07
2418872.9576525507,144193452030.70078,-6625.4960071001215,0.35363243378641035,1.0774352866622773e-07
2439906.6355451816,144053049291.613,-6724.883550581427,0.35589378930136956,1.07279554184008e-07
2460940.3134378125,143910549769.208,-6824.869820575808,0.35814543129269794,1.06819907083012e-07
2481973.9913304434,143765940863.41135,-6925.455383967103,0.36038745049300835,1.0636456000254709e-07
2503007.6692230743,143619209964.56915,-7026.640925059307,0.36261993705184203,1.0591348589544169e-07
2524041.3471157053,143470344442.55118,-7128.427246998206,0.36484298056930903,1.0546665804062973e-07
2545075.025008336,143319331655.40277,-7230.815269983108,0.36705667007326714,1.0502405003388848e-07
2566108.702900967,143166158938.1822,-7333.806033721048,0.3692610940452919,1.0458563580000808e-07
2587142.3807935975,143010813599.15045,-7437.400698129957,0.37145634043083414,1.04151389597021e-07
2608176.0586862285,142853282919.77115,-7541.600543338671,0.37364249663922033,1.03721286016202e-07
2629209.7365788594,142693554154.71063,-7646.406969686918,0.37581964954365243,1.0329529998206826e-07
2650243.4144714903,142531614531.77292,-7751.821497744229,0.37798788548139356,1.0287340675244455e-07
2671277.092364121,142367451242.24698,-7857.845770891321,0.38014729028308303,1.0245558192824879e-07
2692310.770256752,142201051445.02008,-7964.4815535406115,0.38229794926453886,1.0204180144963239e-07
2713344.448149383,142032402261.18857,-8071.73073324174,0.38443994723706093,1.0163204160138497e-07
2734378.126042014,141861490766.45496,-8179.595323045244,0.386573368527933,1.0122627902055561e-07
2755411.803934645,141688303991.128,-8288.077461502551,0.38869829698042285,1.0082449069645293e-07
2776445.481827276,141512828920.1227,-8397.179412665984,0.39081481595378204,1.0042665397064505e-07
2797479.1597199067,141335052492.96036,-8506.903566088766,0.39292300832324606,1.0003274653695962e-07
2818512.837612537,141154961596.96475,-8617.252439535578,0.395022956500326,9.964274644816551e-08
2839546.515505168,140972543064.64856,-8728.228679412723,0.39711474244441824,9.925663211853414e-08
2860580.193397799,140787783675.3811,-8839.835060461253,0.3991984476541551,9.887438232237317e-08
2881613.87129043,140600670143.77838,-8952.074490853205,0.40127415319847337,9.849597620550469e-08
2902647.549183061,140411189119.61273,-9064.95001222958,0.4033419397168687,9.81213932853541e-08
2923681.227075692,140219327187.81293,-9178.464799700332,0.4054018874193957,9.775061345095008e-08
2944714.9049683227,140025070868.46417,-9292.622161844387,0.4074540760866679,9.738361696292458e-08
2965748.5828609536,139828406611.7651,-9407.425543363817,0.4094985850844582,9.702038445872183e-08
2986782.2607535846,139629320791.1636,-9522.878528136513,0.4115354933868529,9.666089695949351e-08
3007815.9386462155,139427799709.03665,-9638.984836375539,0.4135648795577846,9.630513586440009e-08
3028849.616538846,139223829582.73798,-9755.748332537783,0.41558682178745804,9.595308296528487e-08
3049883.294431477,139017396544.0788,-9873.173025608698,0.4176013978937785,9.56047204472153e-08
3070916.972324108,138808486639.3279,-9991.263069102277,0.4196086853223511,9.526003088848302e-08
3091950.6502167387,138597085829.21158,-10110.02276106107,0.42160876114648144,9.491899726060379e-08
3112984.3281093696,138383179984.56842,-10229.456546875781,0.4236017020792901,9.458160293329751e-08
3134018.0060020005,138166754877.16516,-10349.569024693978,0.4255875845022069,9.424783168468911e-08
3155051.6838946315,137947796187.15213,-10470.364940628313,0.4275664844429918,9.391766769286794e-08
3176085.3617872624,137726289487.6977,-10591.849199360679,0.4295384776146376,9.359109555392207e-08
3197119.0396798933,137502220244.04398,-10714.026864775542,0.4315036394178829,9.326810028303384e-08
3218152.717572524,137275573813.50697,-10836.903159959937,0.4334620449412116,9.294866731447977e-08
3239186.395465155,137046335445.47633,-10960.483467203461,0.4354137689608533,9.263278250163063e-08
3260220.0733577856,136814490276.69516,-11084.773331604407,0.4373588859534146,9.232043212310274e-08
3281253.7512504165,136580023321.29416,-11209.778468085082,0.4392974701252218,9.201160289528738e-08
3302287.4291430474,136342919478.36823,-11335.504755673366,0.4412295953909143,9.170628196257523e-08
3323321.1070356783,136103163515.51964,-11461.958250766142,0.4431553354138629,9.140445691935958e-08
3344354.7849283093,135860740067.87453,-11589.145187902457,0.4450747636086939,9.110611581133534e-08
3365388.46282094,135615633638.08282,-11717.071979763525,0.4469879531412885,9.081124713549905e-08
3386422.140713571,135367828596.31831,-11845.745217172733,0.4488949769287831,9.051983984014885e-08
3407455.818606202,135117309173.54166,-11975.171674956722,0.45079590765687927,9.023188333491025e-08
3428489.496498833,134864059453.18468,-12105.35831845982,0.45269081780384013,8.994736750246262e-08
3449523.174391464,134608063376.20273,-12236.312299441675,0.45457977962568324,8.96662826912975e-08
3470556.852284095,134349304724.31186,-12368.040971375747,0.4564628651962329,8.938861974131538e-08
3491590.5301767252,134087767119.50403,-12500.551889882281,0.4583401464083209,8.911436998455734e-08
3512624.208069356,133823434024.04712,-12633.852812728335,0.4602116949737861,8.88435252452051e-08
3533657.885961987,133556288740.48476,-12767.951699827925,0.4620775824234753,8.857607783958127e-08
3554691.563854618,133286314399.44307,-12902.85672502487,0.4639378801374125,8.831202059673614e-08
3575725.241747249,133013493959.28142,-13038.57627550131,0.4657926593483277,8.805134685808891e-08
3596758.91963988,132737810201.38768,-13175.118957195617,0.46764199115002797,8.779405048623384e-08
3617792.5975325108,132459245716.893,-13312.493608232235,0.4694859465283197,8.754012588796619e-08
3638826.2754251417,132177782906.67183,-13450.709298921682,0.4713245963610087,8.728956801428206e-08
3659859.9533177726,131893403981.3418,-13589.77533176054,0.4731580114179,8.704237236037858e-08
3680893.6312104035,131606090959.67778,-13729.701243139245,0.4749862623645021,8.679853496869999e-08
3701927.3091030344,131315825650.494,-13870.496822246534,0.47680941980581326,8.655805246306216e-08
3722960.986995665,131022589662.59323,-14012.172099797277,0.4786275542641127,8.63209220288839e-08
3743994.664888296,130726364385.56578,-14154.737369861507,0.48044073622063366,8.608714145131402e-08
3765028.3427809267,130427130984.28053,-14298.203195935072,0.4822490361280667,8.585670912596439e-08
3786062.0206735577,130124870398.88493,-14442.580410939634,0.4840525244105601,8.562962405890992e-08
3807095.6985661886,129819563344.805,-14587.880117222676,0.4858512714637197,8.540588586668853e-08
3828129.3764588195,129511190302.0434,-14734.11369888875,0.48764534767908624,8.518549479904841e-08
3849163.0543514504,129199731506.26886,-14881.292830949313,0.4894348234665506,8.496845175651061e-08
3870196.7322440813,128885166948.91347,-15029.429480073804,0.4912197692521013,8.475475829113217e-08
3891230.4101367122,128567476357.78154,-15178.535927949104,0.49300025552012017,8.454441664893234e-08
3912264.088029343,128246639196.84221,-15328.624771524444,0.4947763528138448,8.433742977034056e-08
3933297.7659219736,127922634666.22939,-15479.708923011422,0.49654813173536916,8.413380129019652e-08
3954331.4438146045,127595441697.46017,-15631.801615837829,0.49831566295621116,8.393353554902796e-08
3975365.1217072355,127265038933.32475,-15784.916428653834,0.5000790172632745,8.37366376391158e-08
3996398.7995998664,126931404736.17719,-15939.067274990693,0.5018382655402734,8.35431133848241e-08
4017432.4774924973,126594517162.67316,-16094.268436301247,0.5035934788210304,8.335296940420693e-08
4038466.155385128,126254353961.06924,-16250.53456540757,0.5053447282953135,8.316621311548808e-08
4059499.833277759,125910892571.2229,-16407.880686500965,0.5070920853088363,8.29828527370609e-08
4080533.51117039,125564110121.17781,-16566.32219968472,0.5088356213706352,8.280289729632713e-08
4101567.189063021,125213983403.6278,-16725.8749111953,0.5105754082051767,8.262635668907377e-08
4122600.866955652,124860488883.70013,-16886.55502267727,0.5123115177357617,8.24532416587011e-08
4143634.544848283,124503602671.75201,-17048.37916932818,0.5140440221408498,8.228356386931396e-08
4164668.2227409133,124143300518.82275,-17211.36442610483,0.515772993863695,8.211733591770991e-08
4185701.900633544,123779557816.63387,-17375.528307723274,0.5174985056123458,8.195457133337916e-08
4206735.578526176,123412349592.08234,-17540.8887764035,0.5192206303713934,8.179528459398e-08
4227769.2564188065,123041650482.4368,-17707.464275358165,0.5209394414561567,8.163949119292626e-08
4248802.934311437,122667434740.32722,-17875.27372190101,0.5226550125017188,8.148720762542397e-08
