t,r,r_dot,theta,theta_dot
0.0,150000000000.0,0.0,0.0,1.9832769515795482e-07
21033.677892630876,149999998461.42947,-0.21937904861160445,0.00416787155064597,1.9797700069146844e-07
42067.35578526175,149999987702.34573,-0.8764786098904774,0.008328373443457061,1.9762695062062824e-07
63101.03367789263,149999958532.25525,-1.9697410340480677,0.012481519473791846,1.9727756784626637e-07
84134.7115705235,149999901793.44308,-3.497607265577672,0.016627323915686044,1.9692887498301612e-07
105168.38946315438,149999808360.9986,-5.458517203750363,0.020765801515848174,1.9658089436126073e-07
126202.06735578526,149999669142.8338,-7.850910058068817,0.024896967487697753,1.9623364802913672e-07
147235.74524841615,149999475079.6932,-10.67322469684601,0.029020837505479704,1.9588715775457898e-07
168269.423141047,149999217145.15985,-13.923899994323143,0.03313742769835412,1.955414450274216e-07
189303.10103367787,149998886345.64832,-17.60137517191569,0.03724675464455909,1.951965310615675e-07
210336.77892630876,149998473720.39627,-21.70409012641729,0.04134883536574773,1.9485243679712404e-07
231370.45681893965,149997970341.44647,-26.230485774457573,0.045443687321005316,1.945091829027344e-07
252404.1347115705,149997367313.6201,-31.179004357536545,0.04953132840152984,1.941667897777286e-07
273437.8126042014,149996655774.48837,-36.548089788471565,0.05361177692452176,1.9382527755460578e-07
294471.4904968323,149995826894.33203,-42.33618793647851,0.057685051628154856,1.9348466610119076e-07
315505.16838946316,149994871876.09543,-48.54174697195065,0.06175117166542199,1.9314497502327553e-07
336538.846282094,149993781955.34283,-55.16321763987246,0.06581015659922859,1.9280622366677963e-07
357572.5241747249,149992548400.18448,-62.199053585446386,0.06986202639655063,1.9246843112047503e-07
378606.20206735574,149991162511.23767,-69.64771164464345,0.0739068014230941,1.9213161621831477e-07
399639.87995998666,149989615621.52765,-77.507652115631,0.07794450243843708,1.917957975419584e-07
420673.5578526175,149987899096.43393,-85.77733909395684,0.08197515058977223,1.9146099342358002e-07
441707.2357452484,149986004333.6036,-94.45524069442246,0.08599876740787152,1.9112722194801653e-07
462740.9136378793,149983922762.84384,-103.53982937856055,0.09001537480101457,1.9079450095587032e-07
483774.59153051017,149981645846.0644,-113.02958221683902,0.09402499504999505,1.9046284804586917e-07
504808.269423141,149979165077.14606,-122.92298111902187,0.09802765080393182,1.901322805774004e-07
525841.947315772,149976471981.83713,-133.2185131705857,0.10202336507382678,1.8980281567377e-07
546875.6252084028,149973558117.67673,-143.91467084086455,0.10601216122857444,1.8947447022430595e-07
567909.3031010337,149970415073.8367,-155.00995222274557,0.10999406299054539,1.891472608871985e-07
588942.9809936646,149967034471.00803,-166.50286136393092,0.11396909442909312,1.8882120409286524e-07
609976.6588862954,149963407961.31226,-178.39190844413935,0.11793727995712713,1.884963160459253e-07
631010.3367789263,149959527228.12326,-190.6756100064909,0.12189864432680755,1.881726127281654e-07
652044.0146715571,149955383985.92993,-203.35248928579867,0.12585321262300384,1.8785010990209978e-07
673077.692564188,149950969980.24783,-216.4210763691873,0.12980101026012664,1.8752882311284512e-07
694111.370456819,149946276987.42398,-229.87990840785642,0.13374206297817254,1.8720876769109804e-07
715145.0483494498,149941296814.469,-243.7275299297804,0.13767639683643848,1.8688995875681616e-07
736178.7262420807,149936021298.96002,-257.96249302023136,0.14160403820986509,1.865724112213475e-07
757212.4041347115,149930442308.8552,-272.5833574956562,0.14552501378576158,1.862561397900852e-07
778246.0820273424,149924551742.29355,-287.58869116751794,0.1494393505585597,1.8594115896599685e-07
799279.7599199733,149918341527.44522,-302.9770701000346,0.15334707582448942,1.8562748305277484e-07
820313.4378126041,149911803622.38553,-318.7470787303398,0.15724821717923262,1.853151261566858e-07
841347.115705235,149904930014.8638,-334.89731006437034,0.16114280251420238,1.8500410218977406e-07
862380.793597866,149897712722.08133,-351.42636599365403,0.16503086000994754,1.8469442487402884e-07
883414.4714904968,149890143790.59525,-368.3328574179799,0.16891241813361615,1.843861077430626e-07
904448.1493831277,149882215296.09982,-385.61540440671615,0.17278750563586603,1.8407916414497305e-07
925481.8272757586,149873919343.20203,-403.2726364011893,0.1766561515468423,1.8377360724560585e-07
946515.5051683894,149865248065.17834,-421.3031925113303,0.18051838516992422,1.834694500327074e-07
967549.1830610203,149856193623.90045,-439.7057215831787,0.1843742360803479,1.8316670531700616e-07
988582.8609536511,149846748209.5552,-458.47888237644145,0.1882237341218321,1.8286538573567992e-07
1009616.538846282,149836904040.41574,-477.62134376884393,0.19206690940239599,1.8256550375568303e-07
1030650.216738913,149826653362.58154,-497.1317850223621,0.1959037922887265,1.8226707167776103e-07
1051683.894631544,149815988449.911,-517.0088958327631,0.19973441340517728,1.8197010163733843e-07
1072717.5725241746,149804901603.7073,-537.2513765053101,0.20355880363044995,1.8167460560824757e-07
1093751.2504168055,149793385152.49,-557.8579381326538,0.2073769940939567,1.8138059540583843e-07
1114784.9283094364,149781431451.6823,-578.8273028699357,0.21118901617000138,1.8108808269142102e-07
1135818.6062020673,149769032883.56226,-600.1582039689636,0.21499490147708286,1.8079707897289275e-07
1156852.2840946983,149756181856.93716,-621.8493859453217,0.21879468187473566,1.8050759560848243e-07
1177885.9619873292,149742870806.93237,-643.8996046977203,0.22258838946123552,1.802196438092927e-07
1198919.6398799599,149729092194.58893,-666.3076278203794,0.22637605656701665,1.7993323464463776e-07
1219953.3177725908,149714838506.79318,-689.0722346523448,0.23015771575365251,1.7964837904293766e-07
1240986.9956652217,149700102256.05344,-712.1922163871186,0.23393339981177186,1.7936508779422263e-07
1262020.6735578526,149684875980.1977,-735.6663761897194,0.23770314175905957,1.790833715533803e-07
1283054.3514504835,149669152242.023,-759.4935294446612,0.24146697483507423,1.788032408445623e-07
1304088.0293431142,149652923629.02612,-783.6725039262295,0.24522493249776547,1.7852470606442438e-07
1325121.7072357452,149636182753.3712,-808.2021398136911,0.24897704842318696,1.7824777748247646e-07
1346155.385128376,149618922251.4612,-833.0812898647795,0.25272335650241434,1.779724652456156e-07
1367189.063021007,149601134783.78745,-858.308819472239,0.2564638908405984,1.7769877937975584e-07
1388222.740913638,149582813034.38504,-883.8836069874251,0.2601986857504306,1.7742672979608475e-07
1409256.4188062686,149563949710.72263,-909.8045437796438,0.26392777575097526,1.7715632629229727e-07
1430290.0966988995,149544537543.62302,-936.0705342687555,0.26765119556709177,1.7688757855341223e-07
1451323.7745915304,149524569286.75534,-962.6804961000549,0.2713689801265913,1.766204961569014e-07
1472357.4524841614,149504037716.5318,-989.633360190187,0.27508116455941534,1.7635508857383745e-07
1493391.1303767923,149482935631.47678,-1016.9280710521224,0.27878778419139505,1.7609136517564683e-07
1514424.808269423,149461255852.152,-1044.563586830144,0.28248887454359944,1.7582933523489516e-07
1535458.486162054,149438991221.09537,-1072.5388793227744,0.28618447133195973,1.755690079258904e-07
1556492.1640546848,149416134602.23596,-1100.8529341681833,0.28987461046450463,1.7531039233036688e-07
1577525.8419473157,149392678880.88455,-1129.5047508338637,0.2935593280416539,1.7505349743762495e-07
1598559.5198399466,149368616962.98862,-1158.493342963019,0.2972386603499846,1.747983321520444e-07
1619593.1977325776,149343941774.99496,-1187.8177384324633,0.30091264386122885,1.745449052944531e-07
1640626.8756252083,149318646263.84906,-1217.476979352758,0.30458131523227183,1.7429322560213077e-07
1661660.5535178392,149292723396.4889,-1247.4701222273313,0.30824471130297276,1.7404330173354665e-07
1682694.23141047,149266166159.67728,-1277.7962379537057,0.31190286909667064,1.7379514226992194e-07
1703727.909303101,149238967559.49774,-1308.4544120587277,0.3155558258161807,1.735487557201002e-07
1724761.587195732,149211120620.83652,-1339.4437449000127,0.3192036188406408,1.7330415052544033e-07
1745795.2650883626,149182618387.38266,-1370.763351665943,0.32284628572551155,1.730613350598168e-07
1766828.9429809935,149153453921.57,-1402.4123623938044,0.32648386420235975,1.7282031763013867e-07
1787862.6208736245,149123620303.76648,-1434.3899221877314,0.330116392176648,1.7258110648362285e-07
1808896.2987662554,149093110632.5421,-1466.695191099677,0.33374390772953477,1.7234370980546735e-07
1829929.9766588863,149061918023.67868,-1499.32734451414,0.33736644911245295,1.7210813572777988e-07
1850963.6545515172,149030035609.88345,-1532.2855732474834,0.3409840547458165,1.718743923321445e-07
1871997.332444148,148997456540.78934,-1565.5690835479354,0.34459676321902044,1.7164248764962164e-07
1893031.0103367788,148964173982.9126,-1599.177097107971,0.34820461329033126,1.714124296611086e-07
1914064.6882294097,148930181118.6789,-1633.1088513149307,0.3518076438851383,1.7118422630573784e-07
1935098.3661220407,148895471146.88574,-1667.3635990614519,0.3554058940983097,1.7095788547702714e-07
1956132.0440146716,148860037281.63074,-1701.9406091402761,0.3589994031896638,1.707334150320625e-07
1977165.7219073023,148823872751.84515,-1736.8391663950838,0.3625882105824581,1.7051082279549004e-07
1998199.3997999332,148786970801.29398,-1772.0585717204947,0.36617235586339003,1.7029011655951597e-07
2019233.077692564,148749324688.57584,-1807.5981420620672,0.3697518787825963,1.7007130408390664e-07
2040266.755585195,148710927686.6618,-1843.4572105398552,0.3733268192531199,1.6985439309980012e-07
2061300.433477826,148671773082.08157,-1879.6351265913138,0.3768972173515028,1.6963939131658425e-07
2082334.1113704566,148631854175.5876,-1916.1312558067104,0.38046311331826943,1.6942630641647426e-07
2103367.789263088,148591164280.492,-1952.9449804608369,0.3840245475542327,1.6921514606813276e-07
2124401.4671557187,148549696722.57794,-1990.0756995393238,0.38758156062033866,1.6900591792739992e-07
2145435.145048349,148507444840.09946,-2027.5228287386446,0.3911341932376673,1.687986296372935e-07
2166468.82294098,148464401983.78143,-2065.2858004661166,0.3946824862874323,1.6859328882800866e-07
2187502.500833611,148420561516.42242,-2103.364063947267,0.39822648081092843,1.6838990312008225e-07
2208536.178726242,148375916811.46948,-2141.75708552927,0.40176621801088824,1.681884801359432e-07
2229569.856618873,148330461254.7984,-2180.4643481654643,0.4053017392523835,1.6798902748589942e-07
2250603.5345115038,148284188242.32388,-2219.485352171567,0.40883308606043384,1.677915527869579e-07
2271637.2124041347,148237091179.68973,-2258.819615316576,0.4123603001198307,1.6759606366527646e-07
2292670.8902967656,148189163482.2688,-2298.4666728227708,0.41588342327513733,1.6740256775616404e-07
2313704.5681893965,148140398575.16306,-2338.4260773657115,0.4194024975306887,1.672110727040805e-07
2334738.2460820274,148090789893.20355,-2378.697399074239,0.4229175650505916,1.670215861626366e-07
2355771.9239746584,148040330880.48227,-2419.2802256614555,0.4264286681591998,1.6683411579820826e-07
2376805.601867289,147989014987.96484,-2460.174162992668,0.4299358493452263,1.6664866930864395e-07
2397839.2797599197,147936835677.3206,-2501.37883393213,0.43343915125931104,1.6646525439399904e-07
2418872.9576525507,147883786417.35025,-2542.893879484195,0.43693861671533646,1.6628387878380476e-07
2439906.6355451816,147829860683.26083,-2584.718959009305,0.4404342886909481,1.6610455024263568e-07
2460940.3134378125,147775051956.66565,-2626.8537502239874,0.4439262103275544,1.6592727657010984e-07
2481973.9913304434,147719353725.58417,-2669.297949200858,0.44741442493032685,1.6575206560088857e-07
2503007.6692230743,147662759484.44217,-2712.051270368618,0.4508989759681999,1.6557892520467672e-07
2524041.3471157053,147605262734.07166,-2755.113446512057,0.4543799070738708,1.6540786328622252e-07
2545075.025008336,147546856981.71085,-2798.4842287720508,0.4578572620438002,1.6523888778531752e-07
2566108.702900967,147487535738.70898,-2842.1633872288457,0.4613310848456228,1.6507200669452332e-07
2587142.3807935975,147427292520.67,-2886.1507107006055,0.46480141961999283,1.6490722805848634e-07
2608176.0586862285,147366120849.0876,-2930.4460064648397,0.4682683106728094,1.6474455996104612e-07
2629209.7365788594,147304014248.2283,-2975.0491011791823,0.47173180248324753,1.645840105490085e-07
2650243.4144714903,147240966245.1195,-3019.9598408847683,0.47519193970379414,1.6442558803223993e-07
2671277.092364121,147176970369.5491,-3065.178091006232,0.47864876716024796,1.6426930068366732e-07
2692310.770256752,147112020154.06573,-3110.70373635171,0.4821023298517197,1.641151568392782e-07
2713344.448149383,147046109133.9787,-3156.5366811128383,0.4855526729506318,1.639631648981206e-07
2734378.126042014,146979230847.3562,-3202.6768488652674,0.4889998418027264,1.6381333332231682e-07
2755411.803934645,146911378832.66824,-3249.1241832027295,0.4924438819378713,1.6366567065534433e-07
2776445.481827276,146842546629.57355,-3295.8786473792616,0.49588483906828945,1.635201855161656e-07
2797479.1597199067,146772727779.05777,-3342.9402244418493,0.49932275908501655,1.633768865978763e-07
2818512.837612537,146701915821.33093,-3390.308917891178,0.5027576880661049,1.6323578268385702e-07
2839546.515505168,146630104295.82758,-3437.98475168164,0.5061896722766239,1.6309688264777344e-07
2860580.193397799,146557286741.20663,-3485.967770221322,0.5096187581686599,1.6296019545357623e-07
2881613.87129043,146483456695.3514,-3534.258038372017,0.5130449923813154,1.6282573015550104e-07
2902647.549183061,146408607695.36972,-3582.855641449217,0.5164684217407105,1.626934958980686e-07
2923681.227075692,146332733275.8392,-3631.760685749423,0.5198890932696798,1.625635019298662e-07
2944714.9049683227,146255826968.89905,-3680.9732983835006,0.5233070541890302,1.624357576029352e-07
2965748.5828609536,146177882304.5024,-3730.4936273387243,0.5267223519138697,1.6231027237064135e-07
2986782.2607535846,146098892808.37396,-3780.321842193551,0.5301350340634264,1.6218705580362323e-07
3007815.9386462155,146018852002.00882,-3830.458134117975,0.5335451484610546,1.6206611758980108e-07
3028849.616538846,145937753402.6726,-3880.902715873526,0.5369527431342345,1.6194746753437656e-07
3049883.294431477,145855590523.4014,-3931.6558218132755,0.5403578663145726,1.61831115559833e-07
3070916.972324108,145772356872.80438,-3982.717707950584,0.5437605664390291,1.6171707170752237e-07
3091950.6502167387,145688045952.757,-4034.0886526829036,0.5471608921652913,1.616053461562313e-07
3112984.3281093696,145602651260.25674,-4085.768956078043,0.550558892360834,1.6149594920722405e-07
3134018.0060020005,145516166285.31143,-4137.758940776653,0.55395461611366,1.6138889130117566e-07
3155051.6838946315,145428584510.20963,-4190.058952266377,0.557348112736563,1.6128418302403337e-07
3176085.3617872624,145339899409.5208,-4242.669358881859,0.5607394317671266,1.6118183510701674e-07
3197119.0396798933,145250104450.09534,-4295.590551804739,0.564128622967725,1.6108185842661762e-07
3218152.717572524,145159193091.0644,-4348.822945063655,0.5675157363255229,1.609842640046001e-07
3239186.395465155,145067158782.22153,-4402.366976125166,0.5709008220642668,1.6088906302145672e-07
3260220.0733577856,144973994964.053,-4456.223105737784,0.5742839306456371,1.60796266816037e-07
3281253.7512504165,144879695067.56198,-4510.391818140866,0.5776651127685085,1.6070588688704265e-07
3302287.4291430474,144784252512.4468,-4564.873621829908,0.5810444193809741,1.6061793490822175e-07
3323321.1070356783,144687660707.10092,-4619.669049556619,0.5844219016803464,1.6053242272837048e-07
3344354.7849283093,144589913048.6129,-4674.778658328925,0.5877976111131576,1.604493623713331e-07
3365388.46282094,144491002922.76645,-4730.203029410967,0.5911715993751596,1.6036876603600186e-07
3386422.140713571,144390923702.95645,-4785.942768761726,0.5945439184200271,1.6029064610569947e-07
3407455.818606202,144289668749.1278,-4841.998507327315,0.5979146204692357,1.602150151571476e-07
3428489.496498833,144187231408.5578,-4898.370900810755,0.6012837580045496,1.6014188595374217e-07
3449523.174391464,144083605013.54523,-4955.060630745077,0.6046513837850267,1.6007127146573165e-07
3470556.852284095,143978782881.36014,-5012.068404515146,0.6080175508474039,1.6000318487065287e-07
3491590.5301767252,143872758314.24384,-5069.39495535767,0.6113823125060972,1.5993763955333102e-07
3512624.208069356,143765524599.40906,-5127.041042361201,0.6147457223532018,1.5987464910587967e-07
3533657.885961987,143657075007.98914,-5185.007450930193,0.6181078342677063,1.5981422733722008e-07
3554691.563854618,143547402793.8389,-5243.294993170224,0.6214687024272486,1.59756388283595e-07
3575725.241747249,143436501194.3145,-5301.904507629816,0.6248283813001703,1.5970114620161153e-07
3596758.91963988,143324363427.90533,-5360.83686049607,0.6281869256648078,1.5964851559000574e-07
3617792.5975325108,143210982694.17444,-5420.092945622902,0.6315443906099958,1.5959851119018568e-07
3638826.2754251417,143096352173.75864,-5479.673684531051,0.6349008315350664,1.595511479862316e-07
3659859.9533177726,142980465028.3685,-5539.580026408069,0.6382563041498498,1.5950644120489582e-07
3680893.6312104035,142863314399.36713,-5599.81294878417,0.6416108644881695,1.5946440632911952e-07
3701927.3091030344,142744893407.12894,-5660.37345767052,0.6449645689151149,1.5942505910357894e-07
3722960.986995665,142625195151.11633,-5721.262587668343,0.6483174741248648,1.5938841553430787e-07
3743994.664888296,142504212707.76984,-5782.481403109862,0.6516696371595795,1.593544919091697e-07
3765028.3427809267,142381939130.4982,-5844.03099806338,0.6550211154094923,1.5932330479795326e-07
3786062.0206735577,142258367449.67828,-5905.912496333289,0.6583719666129095,1.592948710523729e-07
3807095.6985661886,142133490672.61725,-5968.127051480601,0.6617222488565899,1.5926920780645314e-07
3828129.3764588195,142007301781.35266,-6030.6758479300925,0.6650720205982038,1.5924633249849017e-07
3849163.0543514504,141879793733.3942,-6093.560100409561,0.6684213406597751,1.592262628628406e-07
3870196.7322440813,141750959460.16846,-6156.781054997618,0.6717702682415914,1.5920901694640128e-07
3891230.4101367122,141620791865.72174,-6220.339989870553,0.6751188629348156,1.5919461312192154e-07
3912264.088029343,141489283826.72025,-6284.2382153023245,0.6784671847214875,1.5918307008800296e-07
3933297.7659219736,141356428192.4499,-6348.477073664567,0.6818152939745222,1.5917440686909954e-07
3954331.4438146045,141222217784.40115,-6413.057939661853,0.6851632514621494,1.5916864281994545e-07
3975365.1217072355,141086645393.83212,-6477.982221569429,0.6885111183746446,1.5916579765083792e-07
3996398.7995998664,140949703783.18805,-6543.251360386113,0.6918589563090973,1.5916589141218726e-07
4017432.4774924973,140811385683.3534,-6608.866831633114,0.6952068272973725,1.5916894452491116e-07
4038466.155385128,140671683793.20465,-6674.83014562526,0.6985547938107928,1.591749777852864e-07
4059499.833277759,140530590779.61032,-6741.142847470997,0.7019029187601392,1.5918401236494917e-07
4080533.51117039,140388099277.43088,-6807.806517072391,0.7052512654956504,1.5919606981089474e-07
4101567.189063021,140244201887.85907,-6874.822770100238,0.7085998978258607,1.5921117206405316e-07
4122600.866955652,140098891177.64038,-6942.193258232439,0.7119488800271541,1.592293414667185e-07
4143634.544848283,139952159678.8028,-7009.919669526703,0.7152982768457148,1.5925060076665381e-07
4164668.2227409133,139803999886.4255,-7078.003729908063,0.7186481535221255,1.5927497314303804e-07
4185701.900633544,139654404258.63312,-7146.447203172385,0.7219985757914289,1.5930248220652985e-07
4206735.578526176,139503365216.59573,-7215.2518909863575,0.7253496098831281,1.5933315199926746e-07
4227769.2564188065,139350875144.07846,-7284.419633177255,0.7287013225265269,1.5936700700026038e-07
4248802.934311437,139196926384.73032,-7353.952309300189,0.7320537809832864,1.594040721566702e-07
