t,r,r_dot,theta,theta_dot
0.0,150000000000.0,0.0,0.0,1.9832769515795482e-07
21033.677892630876,149999997949.17725,-0.2923904592312335,0.0041666427487021445,1.9786024039200857e-07
42067.35578526175,149999983612.7858,-1.1677205651138332,0.008323465079762,1.9739391970964717e-07
63101.03367789263,149999944758.4856,-2.62323111506605,0.012470491155189656,1.96928762318746e-07
84134.7115705235,149999869211.93076,-4.656167006327444,0.016607745746044483,1.9646479692404403e-07
105168.38946315438,149999744856.67685,-7.263777841952716,0.02073525422190734,1.9600205173206044e-07
126202.06735578526,149999559634.07608,-10.443318526127378,0.02485304254043714,1.955405544560895e-07
147235.74524841615,149999301543.1584,-14.192049846583872,0.028961137237059637,1.9508033232125991e-07
168269.423141047,149998958640.5031,-18.507239042624793,0.03305956541481173,1.9462141206962038e-07
189303.10103367787,149998519040.09778,-23.38616037328514,0.037148354734077946,1.9416381996538163e-07
210336.77892630876,149997970913.18054,-28.826095656157122,0.04122753340279049,1.9370758180009622e-07
231370.45681893965,149997302488.08365,-34.82433481096972,0.045297130166404985,1.932527228979472e-07
252404.1347115705,149996502050.046,-41.37817638662419,0.04935717429814108,1.9279926812115702e-07
273437.8126042014,149995557941.04077,-48.48492806819418,0.053407695589452235,1.9234724187520965e-07
294471.4904968323,149994458559.56,-56.14190719642655,0.057448724340224716,1.9189666811450713e-07
315505.16838946316,149993192360.4279,-64.34644124426437,0.0614802913496421,1.9144757034754856e-07
336538.846282094,149991747854.5572,-73.09586831428292,0.06550242790664615,1.9099997164270565e-07
357572.5241747249,149990113608.7486,-82.38753760895716,0.06951516578071562,1.9055389463355173e-07
378606.20206735574,149988278245.42545,-92.21880987665281,0.07351853721320777,1.9010936152444536e-07
399639.87995998666,149986230442.40607,-102.58705790490427,0.0775125749074665,1.896663940963441e-07
420673.5578526175,149983958932.6417,-113.48966689852918,0.08149731202137846,1.8922501371187002e-07
441707.2357452484,149981452503.93002,-124.92403499291217,0.08547278215693228,1.887852413217938e-07
462740.9136378793,149978699998.68347,-136.8875736043724,0.08943901935309306,1.8834709746973477e-07
483774.59153051017,149975690313.5933,-149.37770787505798,0.09339605807674684,1.879106022984608e-07
504808.269423141,149972412399.37106,-162.39187710628832,0.09734393321356784,1.874757755555922e-07
525841.947315772,149968855260.45352,-175.92753507195204,0.10128268006161445,1.8704263659850987e-07
546875.6252084028,149965007954.63885,-189.98215049984532,0.10521233432111432,1.866112044013095e-07
567909.3031010337,149960859592.84305,-204.55320739778284,0.10913293208744021,1.861814975595101e-07
588942.9809936646,149956399338.73932,-219.63820538261615,0.11304450984423922,1.8575353429567055e-07
609976.6588862954,149951616408.3812,-235.23466014704798,0.11694710445317863,1.8532733246640052e-07
631010.3367789263,149946500069.954,-251.34010372485594,0.12084075314812553,1.8490290956660634e-07
652044.0146715571,149941039643.37784,-267.95208481080755,0.12472549352830509,1.8448028273538205e-07
673077.692564188,149935224499.89603,-285.068169212882,0.12860136354808577,1.8405946876320223e-07
694111.370456819,149929044061.83023,-302.6859400800087,0.13246840151185743,1.8364048409583596e-07
715145.0483494498,149922487802.1592,-320.802998195128,0.13632664606763778,1.83223344840248e-07
736178.7262420807,149915545244.06375,-339.4169624067711,0.1401761361970969,1.8280806677197138e-07
757212.4041347115,149908205960.67282,-358.52546985324045,0.14401691121036025,1.8239466533906683e-07
778246.0820273424,149900459574.6487,-378.12617621000874,0.1478490107405045,1.8198315566761242e-07
799279.7599199733,149892295757.7003,-398.21675607118726,0.15167247473461565,1.815735525689033e-07
820313.4378126041,149883704230.24554,-418.79490323327894,0.15548734344701748,1.8116587054457617e-07
841347.115705235,149874674761.07074,-439.85833087980654,0.1592936574350295,1.807601237909602e-07
862380.793597866,149865197166.8536,-461.40477186259284,0.16309145755241677,1.8035632620537748e-07
883414.4714904968,149855261311.63425,-483.431979096109,0.16688078493976297,1.799544913937004e-07
904448.1493831277,149844857106.6117,-505.93772567762403,0.17066168102157792,1.7955463267300408e-07
925481.8272757586,149833974509.6379,-528.9198051168208,0.17443418750096168,1.7915676307768884e-07
946515.5051683894,149822603524.6831,-552.3760316652217,0.17819834635149373,1.7876089536653054e-07
967549.1830610203,149810734201.42477,-576.3042405778887,0.18195419981072103,1.7836704202811328e-07
988582.8609536511,149798356634.9564,-600.7022882395836,0.18570179037710396,1.7797521528424646e-07
1009616.538846282,149785460965.27963,-625.5680523657062,0.18944116080526652,1.775854270958722e-07
1030650.216738913,149772037376.65707,-650.8994323694642,0.19317235409670305,1.7719768917115606e-07
1051683.894631544,149758076097.32065,-676.6943495195206,0.19689541349580134,1.7681201296906459e-07
1072717.5725241746,149743567399.0846,-702.9507470829136,0.2006103824863413,1.764284097036712e-07
1093751.2504168055,149728501596.8632,-729.6665904901237,0.20431730478754037,1.760468903495428e-07
1114784.9283094364,149712869047.93246,-756.8398677033613,0.2080162243446086,1.756674656503752e-07
1135818.6062020673,149696660151.66537,-784.4685893408584,0.21170718532558028,1.752901461220379e-07
1156852.2840946983,149679865349.15637,-812.5507887996981,0.21539023211827593,1.749149420565586e-07
1177885.9619873292,149662475122.70435,-841.0845224005725,0.21906540932683927,1.7454186352762152e-07
1198919.6398799599,149644479995.0698,-870.0678697155432,0.2227327617632947,1.7417092039872777e-07
1219953.3177725908,149625870529.07394,-899.4989337331514,0.22639233444332255,1.7380212232752877e-07
1240986.9956652217,149606637327.39743,-929.375840917892,0.23004417258478874,1.7343547876785792e-07
1262020.6735578526,149586771031.89453,-959.69674137978,0.23368832160367742,1.730709989766736e-07
1283054.3514504835,149566262323.07776,-990.4598090696525,0.2373248271091155,1.727086920194169e-07
1304088.0293431142,149545101919.3433,-1021.6632420658726,0.2409537348960773,1.723485667778985e-07
1325121.7072357452,149523280576.9227,-1053.3052625896064,0.24457509094500418,1.7199063195077795e-07
1346155.385128376,149500789089.21112,-1085.3841171675635,0.2481889414179221,1.7163489606001602e-07
1367189.063021007,149477618286.42822,-1117.89807669253,0.2517953326570686,1.712813674542539e-07
1388222.740913638,149453759034.5949,-1150.845436775248,0.25539431117611067,1.7093005431864346e-07
1409256.4188062686,149429202235.1997,-1184.22451784921,0.25898592365755635,1.705809646780357e-07
1430290.0966988995,149403938825.0863,-1218.0336651975729,0.26257021695213734,1.7023410639800186e-07
1451323.7745915304,149377959775.58176,-1252.271249125426,0.26614723807497404,1.6988948719283903e-07
1472357.4524841614,149351256092.2714,-1286.9356650098537,0.26971703420441107,1.695471146277537e-07
1493391.1303767923,149323818813.79395,-1322.0253336611754,0.27327965267345194,1.6920699612970343e-07
1514424.808269423,149295639011.67462,-1357.5387013685329,0.27683514096869205,1.6886913898890067e-07
1535458.486162054,149266707790.18994,-1393.4742399289416,0.280383546729713,1.685335503599742e-07
1556492.1640546848,149237016285.3762,-1429.8304468199897,0.28392491774564904,1.682002372706416e-07
1577525.8419473157,149206555664.9496,-1466.6058452087666,0.28745930195498975,1.6786920662255666e-07
1598559.5198399466,149175317126.9197,-1503.7989843282803,0.29098674743736047,1.675404652030368e-07
1619593.1977325776,149143291899.3892,-1541.4084395267116,0.294507302412467,1.6721401968676655e-07
1640626.8756252083,149110471240.5284,-1579.4328122726258,0.2980210152400014,1.6688987663600235e-07
1661660.5535178392,149076846437.52466,-1617.8707303392566,0.30152793441650766,1.6656804250922594e-07
1682694.23141047,149042408806.5993,-1656.7208477454947,0.30502810857672236,1.6624852366134137e-07
1703727.909303101,149007149691.6536,-1695.9818451130282,0.3085215864866234,1.6593132635442574e-07
1724761.587195732,148971060463.6519,-1735.6524298090428,0.3120084170407619,1.6561645676267215e-07
1745795.2650883626,148934132520.62152,-1775.7313359462212,0.3154886492622613,1.653039209723897e-07
1766828.9429809935,148896357287.34033,-1816.2173244400267,0.318962332302045,1.6499372498441818e-07
1787862.6208736245,148857726214.10446,-1857.1091831745573,0.3224295154371236,1.6468587472396646e-07
1808896.2987662554,148818230777.03928,-1898.4057269468935,0.325890248071252,1.6438037603833542e-07
1829929.9766588863,148777862476.21274,-1940.1057979054742,0.32934457972813475,1.6407723471110692e-07
1850963.6545515172,148736612835.45444,-1982.2082655881206,0.33279256005086805,1.6377645646352037e-07
1871997.332444148,148694473402.3555,-2024.712026922034,0.33623423880193976,1.6347804695447276e-07
1893031.0103367788,148651435747.84686,-2067.6160062995136,0.33966966586258507,1.631820117836117e-07
1914064.6882294097,148607491464.8077,-2110.9191557542117,0.34309889123220016,1.628883565019538e-07
1935098.3661220407,148562632168.74988,-2154.620454837212,0.3465219650293173,1.625970866069944e-07
1956132.0440146716,148516849495.52716,-2198.7189111329235,0.3499389374858447,1.623082075590152e-07
1977165.7219073023,148470135101.12946,-2243.213560301131,0.35334985894664334,1.620217247825687e-07
1998199.3997999332,148422480661.68268,-2288.1034660769956,0.35675477986952725,1.617376436664782e-07
2019233.077692564,148373877873.40753,-2333.3877202791305,0.36015375082522944,1.6145596956412398e-07
2040266.755585195,148324318450.66437,-2379.065443140925,0.363546822496809,1.6117670780723871e-07
2061300.433477826,148273794127.11188,-2425.135782982106,0.36693404568255167,1.6089986369852853e-07
2082334.1113704566,148222296653.8095,-2471.597916690839,0.370315471292143,1.6062544252429226e-07
2103367.789263088,148169817797.91733,-2518.451050002515,0.373691150345111,1.6035344956328765e-07
2124401.4671557187,148116349342.69608,-2565.6944174997475,0.37706113397082597,1.6008389008673135e-07
2145435.145048349,148061883087.5072,-2613.3272826123766,0.38042547340850075,1.5981676935829898e-07
2166468.82294098,148006410847.77283,-2661.34893762586,0.38378422000719625,1.5955209263438883e-07
2187502.500833611,147949924452.36838,-2709.7587041683555,0.38713742522727396,1.5928986518164932e-07
2208536.178726242,147892415745.66934,-2758.5559326432085,0.3904851406425893,1.590300922642834e-07
2229569.856618873,147833876585.5033,-2807.7400027897347,0.3938274179383322,1.587727791569629e-07
2250603.5345115038,147774298841.20148,-2857.3103241249255,0.3971643089106904,1.5851793115752005e-07
2271637.2124041347,147713674393.59894,-2907.2663359434505,0.40049586546684984,1.5826555358694763e-07
2292670.8902967656,147651995135.03445,-2957.6075073176544,0.4038221396249945,1.5801565178939887e-07
2313704.5681893965,147589252969.3506,-3008.3333370975597,0.40714318351430645,1.577682311321875e-07
2334738.2460820274,147525439811.65024,-3059.443353967113,0.4104590493752618,1.5752329700733768e-07
2355771.9239746584,147460547584.29297,-3110.9371172680653,0.4137697895661666,1.5728085485759163e-07
2376805.601867289,147394568221.75446,-3162.8142157224624,0.4170754565597575,1.5704091014632259e-07
2397839.2797599197,147327493666.6077,-3215.074268550301,0.4203761029449545,1.5680346838228154e-07
2418872.9576525507,147259315867.56393,-3267.7169259536154,0.42367178142872597,1.5656853513192386e-07
2439906.6355451816,147190026779.47278,-3320.741869116484,0.4269625448360884,1.5633611601940936e-07
2460940.3134378125,147119618363.32208,-3374.1488102050275,0.4302484461101066,1.561062167266022e-07
2481973.9913304434,147048082586.23804,-3427.937492367408,0.43352953831189345,1.5587884299307098e-07
2503007.6692230743,146975411421.4851,-3482.10768973383,0.4368058746206103,1.5565400061608867e-07
2524041.3471157053,146901596847.9677,-3536.65920754084,0.44007750833481674,1.5543169545378429e-07
2545075.025008336,146826630845.30267,-3591.5918832271996,0.44334449288779415,1.5521193345687445e-07
2566108.702900967,146750505399.53232,-3646.905584897902,0.4466068818332307,1.5499472063304647e-07
2587142.3807935975,146673212498.57986,-3702.600212719655,0.44986472885314394,1.5478006307462408e-07
2608176.0586862285,146594744130.65524,-3758.675699348843,0.45311808776171597,1.5456796696852192e-07
2629209.7365788594,146515092284.25507,-3815.1320099315208,0.4563670125052934,1.543584385962454e-07
2650243.4144714903,146434248948.16275,-3871.9691421034167,0.4596115571623873,1.541514843338909e-07
2671277.092364121,146352206111.44836,-3929.1871259899317,0.46285177594367344,1.5394711065214557e-07
2692310.770256752,146268955763.46878,-3986.7860242061415,0.466087723191992,1.5374532411628745e-07
2713344.448149383,146184489892.23926,-4044.765932314808,0.4693194533887126,1.5354613139654172e-07
2734378.126042014,146098800481.42114,-4103.126979500777,0.4725470211678134,1.533495392877964e-07
2755411.803934645,146011879514.40982,-4161.869327477215,0.4757704812982618,1.5315555468337424e-07
2776445.481827276,145923718969.37546,-4220.993172100826,0.47898988869990267,1.529641846058426e-07
2797479.1597199067,145834310818.94708,-4280.498743467181,0.4822052984445935,1.5277543620899996e-07
2818512.837612537,145743647030.21268,-4340.386305910706,0.48541676575620474,1.5258931677787583e-07
2839546.515505168,145651719564.7192,-4400.656158004695,0.4886243460106199,1.5240583372873077e-07
2860580.193397799,145558520378.4725,-4461.308632561295,0.4918280947357351,1.5222499460905643e-07
2881613.87129043,145464041420.56296,-4522.344097086773,0.49502806761789075,1.520468071064221e-07
2902647.549183061,145368274630.40115,-4583.762954534757,0.49822432051695387,1.5187127906663974e-07
2923681.227075692,145271211940.8965,-4645.565642296347,0.5014169094501704,1.5169841847313542e-07
2944714.9049683227,145172845273.9448,-4707.752633900847,0.5046058906100912,1.5152823347547107e-07
2965748.5828609536,145073166540.13272,-4770.324439120035,0.5077913203658572,1.5136073239122888e-07
2986782.2607535846,144972167638.73816,-4833.2816039681575,0.5109732552631997,1.5119592370601105e-07
3007815.9386462155,144869840457.73,-4896.6247107019335,0.5141517520244404,1.5103381607343992e-07
3028849.616538846,144766176873.7546,-4960.354377825948,0.517326867548562,1.5087441831524768e-07
3049883.294431477,144661168748.92004,-5024.471261294477,0.520498658928873,1.5071773944256947e-07
3070916.972324108,144554807932.03824,-5088.976053840944,0.5236671834486395,1.5056378864799778e-07
3091950.6502167387,144447086257.37225,-5153.86948567444,0.526832498584339,1.5041257531343684e-07
3112984.3281093696,144337995542.0104,-5219.152325575275,0.5299946620184748,1.5026410902730035e-07
3134018.0060020005,144227527585.86618,-5284.825380894983,0.5331537316395756,1.5011839958451146e-07
3155051.6838946315,144115674171.6783,-5350.889497556314,0.5363097655421957,1.4997545698650278e-07
3176085.3617872624,144002427065.0108,-5417.3455600532425,0.539462822026915,1.4983529144121638e-07
3197119.0396798933,143887778012.86353,-5484.194492052799,0.5426129596087275,1.496979133726387e-07
3218152.717572524,143771718741.24655,-5551.437257277061,0.5457602370336597,1.4956333343755164e-07
3239186.395465155,143654240957.369,-5619.074858610989,0.5489047132642952,1.4943156251036502e-07
3260220.0733577856,143535336345.40723,-5687.108340135289,0.5520464475026309,1.4930261171197438e-07
3281253.7512504165,143414996566.29193,-5755.538787223693,0.5551854991912959,1.491764924112171e-07
3302287.4291430474,143293213257.70834,-5824.367326542963,0.5583219280135517,1.490532162248726e-07
3323321.1070356783,143169978034.09604,-5893.595126052891,0.5614557938932923,1.4893279501766222e-07
3344354.7849283093,143045282485.80734,-5963.223395418191,0.5645871570005867,1.4881524090829894e-07
3365388.46282094,142919118175.78656,-6033.253387480499,0.5677160777751925,1.487005662933234e-07
3386422.140713571,142791476642.2534,-6103.686396927119,0.5708426169085813,1.4858878382770544e-07
3407455.818606202,142662349394.34647,-6174.523762653295,0.5739668353697632,1.4847990645612072e-07
3428489.496498833,142531727911.59933,-6245.766868031715,0.5770887944085832,1.4837394741671646e-07
3449523.174391464,142399603643.94052,-6317.417140912505,0.5802085555557207,1.4827092024111147e-07
3470556.852284095,142265968011.6935,-6389.476053623232,0.5833261806226899,1.4817083875439614e-07
3491590.5301767252,142130812404.7077,-6461.94512343978,0.5864417317080359,1.4807371708171736e-07
3512624.208069356,141994128178.9469,-6534.8259142705565,0.5895552712232116,1.479795696739522e-07
3533657.885961987,141855906659.0294,-6608.120035263619,0.5926668618741409,1.478884112883242e-07
3554691.563854618,141716139133.76352,-6681.829143471613,0.5957765666903533,1.478002570224023e-07
3575725.241747249,141574816855.62833,-6755.954944146892,0.5988844490285453,1.4771512231804818e-07
3596758.91963988,141431931040.7736,-6830.49919074152,0.6019905725725803,1.4763302296141626e-07
3617792.5975325108,141287472869.0197,-6905.463684907268,0.6050950013334884,1.4755397508295366e-07
3638826.2754251417,141141433482.42838,-6980.850277339136,0.6081977996604216,1.4747799516885927e-07
3659859.9533177726,140993803982.49084,-7056.660869230942,0.6112990322638143,1.4740510008321816e-07
3680893.6312104035,140844575431.9236,-7132.897411284564,0.6143987642005403,1.4733530705359515e-07
3701927.3091030344,140693738850.17725,-7209.561906604469,0.6174970609060638,1.4726863370742822e-07
3722960.986995665,140541285213.20834,-7286.6564108386665,0.62059398819613,1.4720509807386743e-07
3743994.664888296,140387205453.47952,-7364.183032178723,0.6236896122667654,1.4714471858377492e-07
3765028.3427809267,140231490459.95938,-7442.143931359746,0.6267839996942776,1.4708751406972496e-07
3786062.0206735577,140074131075.15335,-7520.54132354248,0.6298772174595213,1.4703350379120817e-07
3807095.6985661886,139915118094.7318,-7599.377478283459,0.6329693329526096,1.469827074370105e-07
3828129.3764588195,139754442266.52515,-7678.654720443619,0.6360604139787291,1.4693514513432583e-07
3849163.0543514504,139592094287.18597,-7758.375432487276,0.6391505287840236,1.4689083747754895e-07
3870196.7322440813,139428064802.18918,-7838.5420544822155,0.642239746055595,1.4684980552827677e-07
3891230.4101367122,139262344405.83176,-7919.1570840996965,0.6453281349215039,1.4681207081530825e-07
3912264.088029343,139094923640.7678,-8000.223076940629,0.6484157649547159,1.4677765533886798e-07
3933297.7659219736,138925792993.64374,-8081.74264941465,0.6515027062111703,1.4674658160959526e-07
3954331.4438146045,138754942897.45547,-8163.718476960454,0.6545890292101346,1.467188726265679e-07
3975365.1217072355,138582363726.87485,-8246.153297667637,0.6576748049715407,1.46694551920832e-07
3996398.7995998664,138408045797.10864,-8329.049913112929,0.6607601050254432,1.4667364356588395e-07
4017432.4774924973,138231979363.8986,-8412.41118836019,0.6638450014120193,1.466561721776702e-07
4038466.155385128,138054154623.52118,-8496.240051960413,0.6669295666815682,1.4664216291458727e-07
4059499.833277759,137874561709.98395,-8580.539498008884,0.6700138739196616,1.4663164150439113e-07
4080533.51117039,137693190693.46344,-8665.31258697666,0.6730979967624439,1.4662463425777894e-07
4101567.189063021,137510031579.81537,-8750.562446363076,0.6761820093992195,1.466211680741737e-07
4122600.866955652,137325074306.46437,-8836.29227397275,0.6792659866080064,1.4662127048224905e-07
4143634.544848283,137138308742.3877,-8922.505337928162,0.6823500037556802,1.466249696400889e-07
4164668.2227409133,136949724688.11513,-9009.204976669647,0.6854341367979737,1.466322943351873e-07
4185701.900633544,136759311874.62671,-9096.394599829006,0.688518462289722,1.4664327399576535e-07
4206735.578526176,136567059958.83131,-9184.077691534687,0.6916030574278244,1.4665793873577038e-07
4227769.2564188065,136372958525.56656,-9272.257808829208,0.694688000032242,1.466763193341853e-07
4248802.934311437,136176997082.0315,-9360.938586505576,0.6977733685959976,1.4669844729422284e-07
