t,r,r_dot,theta,theta_dot
0.0,150000000000.0,0.0,0.0,1.9832769515795482e-07
21033.677892630876,149999997437.22702,-0.3653444850928295,0.004165414429845637,1.977435489528242e-07
42067.35578526175,149999979528.04358,-1.4585050807509863,0.008318560573664504,1.9716116355858002e-07
63101.03367789263,149999931009.0357,-3.2751828838952433,0.012459475831458258,1.9658057342496944e-07
84134.7115705235,149999836707.05942,-5.811093561130212,0.016588198319648046,1.9600181222536478e-07
105168.38946315438,149999681538.92502,-9.06196823056851,0.020704766854856452,1.9542491286657e-07
126202.06735578526,149999450511.06332,-13.023554321695125,0.024809220937887955,1.9484990749869714e-07
147235.74524841615,149999128719.1735,-17.69161641493495,0.02890160073788141,1.9427682752512363e-07
168269.423141047,149998701347.85208,-23.061937055742156,0.0329819470767501,1.937057036124776e-07
189303.10103367787,149998153670.21127,-29.13031754569466,0.0370503014138544,1.9313656570061457e-07
210336.77892630876,149997471047.47064,-35.89257872818489,0.04110670583057355,1.9256944301285216e-07
231370.45681893965,149996638928.54105,-43.344561722214856,0.04515120301573221,1.920043640658864e-07
252404.1347115705,149995642849.5929,-51.482128674684944,0.04918383625040462,1.9144135668011036e-07
273437.8126042014,149994468433.5976,-60.30116345441198,0.05320464939378192,1.908804479896693e-07
294471.4904968323,149993101389.87827,-69.79757235771659,0.05721368686851548,1.9032166445266433e-07
315505.16838946316,149991527513.61078,-79.96728477050058,0.06121099364687971,1.8976503186139345e-07
336538.846282094,149989732685.35437,-90.8062538335644,0.06519661523655408,1.8921057535249091e-07
357572.5241747249,149987702870.5223,-102.31045705742295,0.06917059766744421,1.8865831941710884e-07
378606.20206735574,149985424118.8809,-114.47589697178162,0.07313298747738743,1.8810828791130254e-07
399639.87995998666,149982882564.01187,-127.2986016704752,0.07708383170017932,1.8756050406572986e-07
420673.5578526175,149980064422.7493,-140.7746254673368,0.08102317785072356,1.8701499049673302e-07
441707.2357452484,149976955994.6742,-154.90004936512952,0.08495107391442512,1.864717692151386e-07
462740.9136378793,149973543661.46487,-169.67098169499914,0.08886756833237042,1.8593086163800366e-07
483774.59153051017,149969813886.4067,-185.08355858316412,0.09277270999034339,1.8539228859735684e-07
504808.269423141,149965753213.7446,-201.1339444602791,0.0966665482068168,1.8485607035073537e-07
525841.947315772,149961348268.073,-217.8183326321365,0.10054913271904728,1.8432222659203437e-07
546875.6252084028,149956585753.80664,-235.13294564506066,0.10442051367422227,1.8379077645968143e-07
567909.3031010337,149951452454.43314,-253.07403585173853,0.10828074161538973,1.8326173854869407e-07
588942.9809936646,149945935231.9841,-271.63788583247947,0.11212986747075858,1.8273513091940892e-07
609976.6588862954,149940021026.39758,-290.82080876139497,0.11596794254445764,1.8221097110669856e-07
631010.3367789263,149933696854.74045,-310.6191489528832,0.11979501850226376,1.8168927613213598e-07
652044.0146715571,149926949810.71133,-331.02928218679523,0.1236111473630006,1.8117006251153017e-07
673077.692564188,149919767063.93518,-352.04761606068666,0.12741638148923168,1.8065334626467282e-07
694111.370456819,149912135859.14398,-373.67059050352464,0.13121077357322344,1.8013914292752808e-07
715145.0483494498,149904043515.69666,-395.8946780448363,0.1349943766295094,1.7962746755907356e-07
736178.7262420807,149895477426.84406,-418.71638412859375,0.13876724398619142,1.791183347509761e-07
757212.4041347115,149886425058.85358,-442.1322475897287,0.14252942927134224,1.786117586398713e-07
778246.0820273424,149876873950.51746,-466.13884090601147,0.14628098640573764,1.7810775291409135e-07
799279.7599199733,149866811712.43762,-490.7327704548254,0.15002196959535583,1.776063308226227e-07
820313.4378126041,149856226026.1206,-515.9106769253299,0.15375243331911073,1.7710750518700558e-07
841347.115705235,149845104643.35522,-541.6692356147616,0.15747243231994312,1.7661128840952937e-07
862380.793597866,149833435385.61026,-568.0051566164881,0.16118202159898704,1.7611769248045422e-07
883414.4714904968,149821206143.1857,-594.9151851165259,0.16488125640635393,1.756267289884055e-07
904448.1493831277,149808404874.2722,-622.3961017887001,0.16857019222872713,1.7513840913210955e-07
925481.8272757586,149795019604.57224,-650.4447229155572,0.17224888478544878,1.7465274372484041e-07
946515.5051683894,149781038426.44873,-679.0579006046573,0.17591739002136597,1.7416974320417753e-07
967549.1830610203,149766449497.93344,-708.2325231370528,0.1795757640953989,1.736894176436692e-07
988582.8609536511,149751241042.0861,-737.9655151924682,0.18322406337313007,1.7321177676029604e-07
1009616.538846282,149735401346.41132,-768.2538379807394,0.18686234442216615,1.7273682992081786e-07
1030650.216738913,149718918762.05585,-799.0944894175481,0.19049066400592804,1.7226458615062027e-07
1051683.894631544,149701781702.61383,-830.4845044955763,0.19410907907092617,1.7179505414688715e-07
1072717.5725241746,149683978643.7449,-862.4209553944439,0.19771764674295575,1.7132824228275502e-07
1093751.2504168055,149665498122.41345,-894.9009516181588,0.20131642432187988,1.7086415861518773e-07
1114784.9283094364,149646328736.11957,-927.9216401404851,0.20490546927615313,1.7040281089307154e-07
1135818.6062020673,149626459141.59863,-961.4802057514272,0.2084848392304726,1.6994420657064322e-07
1156852.2840946983,149605878054.52377,-995.5738711294796,0.21205459196316662,1.694883528105355e-07
1177885.9619873292,149584574248.69952,-1030.1998969626268,0.215614785401302,1.6903525649169197e-07
1198919.6398799599,149562536555.34653,-1065.3555820460997,0.21916547761659894,1.6858492421655878e-07
1219953.3177725908,149539753861.6837,-1101.0382636081695,0.22270672681347647,1.6813736232481147e-07
1240986.9956652217,149516215110.53592,-1137.2453173929882,0.22623859132596483,1.6769257689714356e-07
1262020.6735578526,149491909299.7598,-1173.9741577355549,0.2297611296145706,1.6725057376058067e-07
1283054.3514504835,149466825481.3404,-1211.2222376423651,0.23327440026235335,1.6681135849709036e-07
1304088.0293431142,149440952760.21243,-1248.9870490309302,0.2367784619660351,1.6637493645431767e-07
1325121.7072357452,149414280293.33765,-1287.266122899168,0.24027337352958705,1.6594131275394306e-07
1346155.385128376,149386797289.56372,-1326.0570293425221,0.243759193863527,1.6551049229290488e-07
1367189.063021007,149358493008.43073,-1365.3573776584099,0.24723598198003066,1.6508247975397189e-07
1388222.740913638,149329356759.64487,-1405.1648164049263,0.25070379699035766,1.646572796105119e-07
1409256.4188062686,149299377901.35486,-1445.4770336932108,0.25416269809403363,1.6423489614108036e-07
1430290.0966988995,149268545839.91324,-1486.2917572231456,0.25761274457748357,1.6381533343145469e-07
1451323.7745915304,149236850029.4447,-1527.6067543247689,0.26105399581233707,1.6339859537816724e-07
1472357.4524841614,149204279970.62546,-1569.4198320210405,0.2644865112519381,1.629846856988891e-07
1493391.1303767923,149170825210.01575,-1611.7288371370073,0.26791035042748335,1.6257360793781562e-07
1514424.808269423,149136475338.36884,-1654.5316565430887,0.2713255729393406,1.6216536547908096e-07
1535458.486162054,149101219990.56216,-1697.8262171636097,0.2747322384567316,1.617599615473089e-07
1556492.1640546848,149065048845.07956,-1741.61048602069,0.27813040671612094,1.6135739921159645e-07
1577525.8419473157,149027951622.71228,-1785.882470279248,0.28152013751863647,1.609576813959855e-07
1598559.5198399466,148989918086.0487,-1830.640217335074,0.2849014907272929,1.6056081088328112e-07
1619593.1977325776,148950938037.5188,-1875.8818150705756,0.28827452625878236,1.601667903295559e-07
1640626.8756252083,148911001319.31488,-1921.6053918636358,0.29163930408317795,1.5977562226474628e-07
1661660.5535178392,148870097813.1721,-1967.8091166068557,0.29499588422339235,1.5938730909422453e-07
1682694.23141047,148828217438.62967,-2014.4911987989606,0.2983443267521851,1.5900185311168596e-07
1703727.909303101,148785350153.26547,-2061.649888494796,0.3016846917932198,1.5861925649782914e-07
1724761.587195732,148741485950.17,-2109.2834766410124,0.3050170395122545,1.5823952133776334e-07
1745795.2650883626,148696614857.51782,-2157.3902951240448,0.3083414301158547,1.57862649624012e-07
1766828.9429809935,148650726938.5675,-2205.9687167701127,0.31165792385139307,1.5748864325651262e-07
1787862.6208736245,148603812290.70102,-2255.0171554227927,0.31496658100563574,1.571175040491198e-07
1808896.2987662554,148555861044.22794,-2304.53406593843,0.3182674619049647,1.567492337384515e-07
1829929.9766588863,148506863362.07446,-2354.517944279849,0.3215606269133338,1.5638383398568457e-07
1850963.6545515172,148456809437.2596,-2404.967327827375,0.32484613642632953,1.5602130639294906e-07
1871997.332444148,148405689492.8422,-2455.8807953844475,0.3281240508710658,1.5566165250367958e-07
1893031.0103367788,148353493781.9207,-2507.2569671776178,0.33139443070618385,1.5530487380261543e-07
1914064.6882294097,148300212586.47018,-2559.0945049635297,0.33465733642104256,1.549509717231735e-07
1935098.3661220407,148245836216.0823,-2611.392112019639,0.33791282853714866,1.5459994765632098e-07
1956132.0440146716,148190355008.10962,-2664.1485331966514,0.3411609676067997,1.5425180294936598e-07
1977165.7219073023,148133759324.53387,-2717.362555333447,0.3444018142084347,1.5390653892500415e-07
1998199.3997999332,148076039551.8914,-2771.0330072656834,0.34763542894654903,1.5356415688178006e-07
2019233.077692564,148017186101.27316,-2825.1587598257956,0.3508618724516942,1.5322465809408715e-07
2040266.755585195,147957189408.0811,-2879.7387258730473,0.35408120538045024,1.5288804381359945e-07
2061300.433477826,147896039928.93936,-2934.77186058196,0.35729348841670144,1.525543152880125e-07
2082334.1113704566,147833728144.1235,-2990.2571610324217,0.36049878227370313,1.5222347374757515e-07
2103367.789263088,147770244553.66412,-3046.1936668635913,0.3636971476904121,1.5189552042697724e-07
2124401.4671557187,147705579676.10233,-3102.580460451417,0.36688864543090816,1.5157045657251638e-07
2145435.145048349,147639724048.48965,-3159.416666908644,0.37007333628439454,1.512482834420981e-07
2166468.82294098,147572668226.38806,-3216.7014540848154,0.3732512810651981,1.5092900230523578e-07
2187502.500833611,147504402783.66406,-3274.434032598333,0.37642254061290636,1.5061261444418988e-07
2208536.178726242,147434918308.4193,-3332.613656364737,0.37958717579680584,1.5029912117708304e-07
2229569.856618873,147364205406.8842,-3391.239621823364,0.3827452475158858,1.4998852383743161e-07
2250603.5345115038,147292254699.09622,-3450.311268815111,0.385896816698205,1.496808237969451e-07
2271637.2124041347,147219056816.81717,-3509.827980942527,0.38904194430168276,1.4937602247684419e-07
2292670.8902967656,147144602403.53284,-3569.7891855698126,0.39218069131409866,1.490741213478607e-07
2313704.5681893965,147068882114.45325,-3630.1943538228197,0.3953131187530926,1.4877512193023755e-07
2334738.2460820274,146991886616.51254,-3691.0430005890516,0.3984392876661649,1.4847902579372874e-07
2355771.9239746584,146913606587.6006,-3752.3346846660847,0.4015592591319165,1.4818583456167036e-07
2376805.601867289,146834032711.40448,-3814.0690095851805,0.40467309427095716,1.4789554993918928e-07
2397839.2797599197,146753155684.0962,-3876.245622177121,0.40778085423701005,1.4760817367859187e-07
2418872.9576525507,146670966207.52005,-3938.8642141669097,0.4108826002234977,1.4732370761411228e-07
2439906.6355451816,146587454987.57697,-4001.9245225142176,0.4139783934657124,1.470421536703322e-07
2460940.3134378125,146502612734.2244,-4065.4263294133802,0.417068295240816,1.467635138621808e-07
2481973.9913304434,146416430161.4765,-4129.369462293396,0.42015236686784013,1.4648779029493464e-07
2503007.6692230743,146328897987.40387,-4193.753793817931,0.4232306697076858,1.4621498516421787e-07
2524041.3471157053,146240006934.13373,-4258.579241885313,0.4263032651631239,1.459451007560021e-07
2545075.025008336,146149747724.0682,-4323.84577049896,0.42937021468944103,1.4567813946638284e-07
2566108.702900967,146058111079.07913,-4389.553389651163,0.4324315798006422,1.4541410380704099e-07
2587142.3807935975,145965087723.70416,-4455.702154763494,0.4354874220570712,1.451529963878236e-07
2608176.0586862285,145870668378.3952,-4522.292168489476,0.43853780308068757,1.4489481995103134e-07
2629209.7365788594,145774843759.44208,-4589.323580733662,0.4415827845552593,1.4463957737181216e-07
2650243.4144714903,145677604578.97235,-4656.796588651638,0.44462242822636333,1.4438727165816123e-07
2671277.092364121,145578941544.95142,-4724.711436650019,0.44765679590138563,1.4413790595092108e-07
2692310.770256752,145478845361.1826,-4793.068416386457,0.4506859494495211,1.4389148352378146e-07
2713344.448149383,145377306726.2767,-4861.867867076335,0.453709950805416,1.436480077886128e-07
2734378.126042014,145274316327.7901,-4931.110177047985,0.45672886199237234,1.4340748232641165e-07
2755411.803934645,145169864848.69595,-5000.795781736345,0.4597427450995797,1.431699108539885e-07
2776445.481827276,145063942960.8021,-5070.925165965455,0.46275166230033987,1.4293529725698198e-07
2797479.1597199067,144956541323.4386,-5141.4988643652005,0.46575567585633026,1.4270364559657165e-07
2818512.837612537,144847650583.45755,-5212.5174613713125,0.4687548481176034,1.4247496010947803e-07
2839546.515505168,144737261375.2331,-5283.981591225367,0.4717492415225873,1.4224924520796264e-07
2860580.193397799,144625364320.6615,-5355.891937974782,0.47473891859808537,1.4202650547982797e-07
2881613.87129043,144511950028.04233,-5428.249235880234,0.47772394196393164,1.4180674569428752e-07
2902647.549183061,144397009086.83145,-5501.054271138102,0.4807043743572163,1.4158997082992334e-07
2923681.227075692,144280532073.1039,-5574.307879834508,0.48368027860941826,1.413761860460621e-07
2944714.9049683227,144162509543.0916,-5648.010950597332,0.48665171766877346,1.4116539671593317e-07
2965748.5828609536,144042932032.15707,-5722.164424990594,0.4896187546042518,1.4095760843200363e-07
2986782.2607535846,143921790054.7933,-5796.769297514444,0.49258145260555697,1.4075282700597825e-07
3007815.9386462155,143799074104.62393,-5871.826615605167,0.4955398749831267,1.4055105846879946e-07
3028849.616538846,143674774654.40317,-5947.3374796351845,0.4984940851681325,1.403523090706474e-07
3049883.294431477,143548882152.7993,-6023.303044280724,0.5014441467278811,1.4015658529837313e-07
3070916.972324108,143421387023.04898,-6099.724518836572,0.5043901233752095,1.3996389388314395e-07
3091950.6502167387,143292279664.54895,-6176.60316670973,0.5073320789578172,1.3977424179143642e-07
3112984.3281093696,143161550447.24835,-6253.94030802058,0.5102700774821516,1.3958763625507147e-07
3134018.0060020005,143029189711.5924,-6331.737319627934,0.5132041831136629,1.394040847715171e-07
3155051.6838946315,142895187768.52243,-6409.995635129036,0.5161344601768032,1.3922359510388845e-07
3176085.3617872624,142759534899.4759,-6488.716744859565,0.5190609731550272,1.3904617528094769e-07
3197119.0396798933,142622221355.44052,-6567.902196367888,0.521983786695677,1.388718336024502e-07
3218152.717572524,142483237351.7195,-6647.553596857456,0.5249029656390685,1.387005786688487e-07
3239186.395465155,142342573072.50684,-6727.672610816689,0.5278185749950183,1.3853241935537087e-07
3260220.0733577856,142200218664.564,-6808.26096348608,0.5307306799715444,1.383673648474637e-07
3281253.7512504165,142056164236.1205,-6889.3204414323745,0.5336393459802588,1.3820542464698805e-07
3302287.4291430474,141910399856.87393,-6970.8528925485525,0.536544638636366,1.3804660857221867e-07
3323321.1070356783,141762915557.9899,-7052.860226053839,0.5394466237586646,1.37890926757844e-07
3344354.7849283093,141613701331.77545,-7135.344412680938,0.5423453673713549,1.3773838965691415e-07
3365388.46282094,141462747126.0403,-7218.307487762152,0.5452409357368051,1.3758900807446034e-07
3386422.140713571,141310042847.92413,-7301.751548849413,0.5481333953357237,1.3744279314454198e-07
3407455.818606202,141155578358.7089,-7385.678758996345,0.5510228128920841,1.3729975636110638e-07
3428489.496498833,140999343471.5869,-7470.091348084263,0.553909255384958,1.3715990959129669e-07
3449523.174391464,140841327951.661,-7554.99161282217,0.5567927900485166,1.370232650754518e-07
3470556.852284095,140681521515.94437,-7640.381916746763,0.559673484372029,1.368898354271064e-07
3491590.5301767252,140519913833.10226,-7726.264690387887,0.5625514061013915,1.3675963363462904e-07
3512624.208069356,140356494517.69794,-7812.6424348037235,0.5654266232745323,1.3663267309757572e-07
3533657.885961987,140191253133.6003,-7899.517719182352,0.5682992042027202,1.365089676047797e-07
3554691.563854618,140024179188.89682,-7986.893184426895,0.5711692174970943,1.3638853136678063e-07
3575725.241747249,139855262133.3653,-8074.771544829294,0.574036732083071,1.3627137903189335e-07
3596758.91963988,139684491358.47418,-8163.155588070313,0.5769018172003441,1.3615752568620812e-07
3617792.5975325108,139511856197.38242,-8252.048175219536,0.5797645424028839,1.3604698685359047e-07
3638826.2754251417,139337345924.3556,-8341.452241145325,0.5826249775626088,1.35939778499631e-07
3659859.9533177726,139160949748.65707,-8431.370798608858,0.5854831929092678,1.3583591707263383e-07
3680893.6312104035,138982656818.45856,-8521.806935352037,0.5883392590066149,1.3573541947675475e-07
3701927.3091030344,138802456214.4032,-8612.763818987978,0.5911932467895111,1.3563830311605378e-07
3722960.986995665,138620336947.80545,-8704.244698307488,0.5940452275748809,1.355445859067376e-07
3743994.664888296,138436287960.65106,-8796.252903279086,0.596895273061712,1.3545428627715923e-07
3765028.3427809267,138250298125.5971,-8888.791845048992,0.5997434553310556,1.3536742316781824e-07
3786062.0206735577,138062356244.13568,-8981.865017331958,0.602589846858227,1.3528401604461406e-07
3807095.6985661886,137872451041.2905,-9075.476000138395,0.6054345205498112,1.35204084936389e-07
3828129.3764588195,137680571168.8566,-9169.628457355046,0.6082775497213068,1.35127650411467e-07
3849163.0543514504,137486705197.9222,-9264.32614279784,0.6111190081440058,1.3505473363249488e-07
3870196.7322440813,137290841618.28226,-9359.572900671716,0.6139589700487855,1.349853563607131e-07
3891230.4101367122,137092968838.43834,-9455.372665570612,0.6167975101261092,1.349195409559555e-07
3912264.088029343,136893075185.5837,-9551.729462489933,0.6196347035261272,1.3485731037676562e-07
3933297.7659219736,136691148900.12238,-9648.647411245844,0.6224706258969375,1.3479868822251994e-07
3954331.4438146045,136487178136.05441,-9746.130725749523,0.6253053533838012,1.3474369872907341e-07
3975365.1217072355,136281150957.73724,-9844.183717107231,0.6281389626486171,1.3469236679502224e-07
3996398.7995998664,136073055335.16585,-9942.810797674469,0.6309715309014714,1.3464471801873487e-07
4017432.4774924973,135862879143.97278,-10042.016481055958,0.633803135900638,1.3460077869835187e-07
4038466.155385128,135650610165.42816,-10141.80538210565,0.6366338559525784,1.34560575831786e-07
4059499.833277759,135436236084.55171,-10242.182218579439,0.6394637699255006,1.345241371323161e-07
4080533.51117039,135219744483.74957,-10343.151816345071,0.6422929572964978,1.3449149107974047e-07
4101567.189063021,135001122845.8096,-10444.7191067981,0.6451214981293553,1.3446266689560492e-07
4122600.866955652,134780358545.53375,-10546.889134699872,0.647949473132212,1.3443769461418534e-07
4143634.544848283,134557438849.01312,-10649.667058834484,0.6507769636626649,1.344166050885583e-07
4164668.2227409133,134332350913.628,-10753.058152008794,0.6536040517277691,1.3439942999060112e-07
4185701.900633544,134105081787.49625,-10857.067801571466,0.6564308199881171,1.3438620181588658e-07
4206735.578526176,133875618401.73538,-10961.701516391693,0.6592573518160363,1.3437695395099597e-07
4227769.2564188065,133643947573.39003,-11066.964923810241,0.6620837312745428,1.3437172064608907e-07
4248802.934311437,133410055997.46205,-11172.86377776334,0.6649100431738052,1.3437053708825016e-07
